Time(s),CH1V,CH2V
-6.300000e-02,2.382000e+00,2.361067e+00
-6.287400e-02,2.338933e+00,2.340667e+00
-6.274800e-02,2.325200e+00,2.313467e+00
-6.262200e-02,2.275333e+00,2.279600e+00
-6.249600e-02,2.241333e+00,2.261467e+00
-6.237000e-02,2.200533e+00,2.220667e+00
-6.224400e-02,2.161867e+00,2.186667e+00
-6.211800e-02,2.118800e+00,2.136933e+00
-6.199200e-02,2.059867e+00,2.096133e+00
-6.186600e-02,1.996267e+00,2.034933e+00
-6.174000e-02,1.946400e+00,1.998800e+00
-6.161400e-02,1.869200e+00,1.935333e+00
-6.148800e-02,1.835200e+00,1.887733e+00
-6.136200e-02,1.764933e+00,1.822133e+00
-6.123600e-02,1.705867e+00,1.779067e+00
-6.111000e-02,1.633333e+00,1.702133e+00
-6.098400e-02,1.560667e+00,1.643200e+00
-6.085800e-02,1.488133e+00,1.573067e+00
-6.073200e-02,1.422267e+00,1.502800e+00
-6.060600e-02,1.333867e+00,1.430400e+00
-6.048000e-02,1.256667e+00,1.360133e+00
-6.035400e-02,1.177333e+00,1.276400e+00
-6.022800e-02,1.111467e+00,1.208400e+00
-6.010200e-02,1.007067e+00,1.129200e+00
-5.997600e-02,9.368000e-01,1.036267e+00
-5.985000e-02,8.482667e-01,9.661334e-01
-5.972400e-02,7.598667e-01,8.800000e-01
-5.959800e-02,6.758667e-01,8.030667e-01
-5.947200e-02,5.896000e-01,7.237334e-01
-5.934600e-02,4.944000e-01,6.196000e-01
-5.922000e-02,3.990667e-01,5.404000e-01
-5.909400e-02,3.242667e-01,4.406667e-01
-5.896800e-02,2.334667e-01,3.728000e-01
-5.884200e-02,1.381333e-01,2.777333e-01
-5.871600e-02,4.746667e-02,1.893333e-01
-5.859000e-02,-5.240000e-02,9.200000e-02
-5.846400e-02,-1.340000e-01,1.266667e-02
-5.833800e-02,-2.361333e-01,-9.146667e-02
-5.821200e-02,-3.224000e-01,-1.729333e-01
-5.808600e-02,-4.130667e-01,-2.409333e-01
-5.796000e-02,-4.993334e-01,-3.518667e-01
-5.783400e-02,-5.946667e-01,-4.198667e-01
-5.770800e-02,-6.853333e-01,-5.217333e-01
-5.758200e-02,-7.716000e-01,-6.122667e-01
-5.745600e-02,-8.646667e-01,-6.938667e-01
-5.733000e-02,-9.440000e-01,-7.821333e-01
-5.720400e-02,-1.018933e+00,-8.592000e-01
-5.707800e-02,-1.098267e+00,-9.610667e-01
-5.695200e-02,-1.184533e+00,-1.035733e+00
-5.682600e-02,-1.268400e+00,-1.115067e+00
-5.670000e-02,-1.345600e+00,-1.194267e+00
-5.657400e-02,-1.420400e+00,-1.273600e+00
-5.644800e-02,-1.490800e+00,-1.341467e+00
-5.632200e-02,-1.574667e+00,-1.418533e+00
-5.619600e-02,-1.617867e+00,-1.493200e+00
-5.607000e-02,-1.713067e+00,-1.561200e+00
-5.594400e-02,-1.778933e+00,-1.633600e+00
-5.581800e-02,-1.837867e+00,-1.703867e+00
-5.569200e-02,-1.903733e+00,-1.760400e+00
-5.556600e-02,-1.949067e+00,-1.830667e+00
-5.544000e-02,-1.996667e+00,-1.896267e+00
-5.531400e-02,-2.046667e+00,-1.937067e+00
-5.518800e-02,-2.110133e+00,-1.993733e+00
-5.506200e-02,-2.169200e+00,-2.054800e+00
-5.493600e-02,-2.200933e+00,-2.102400e+00
-5.481000e-02,-2.250800e+00,-2.136400e+00
-5.468400e-02,-2.284800e+00,-2.181733e+00
-5.455800e-02,-2.330267e+00,-2.238267e+00
-5.443200e-02,-2.355200e+00,-2.270000e+00
-5.430600e-02,-2.382400e+00,-2.315333e+00
-5.418000e-02,-2.420933e+00,-2.337867e+00
-5.405400e-02,-2.432267e+00,-2.367333e+00
-5.392800e-02,-2.459600e+00,-2.394533e+00
-5.380200e-02,-2.475467e+00,-2.430800e+00
-5.367600e-02,-2.484533e+00,-2.433067e+00
-5.355000e-02,-2.495867e+00,-2.462533e+00
-5.342400e-02,-2.502667e+00,-2.467067e+00
-5.329800e-02,-2.511733e+00,-2.491867e+00
-5.317200e-02,-2.500400e+00,-2.485067e+00
-5.304600e-02,-2.525333e+00,-2.491867e+00
-5.292000e-02,-2.502667e+00,-2.489600e+00
-5.279400e-02,-2.500400e+00,-2.491867e+00
-5.266800e-02,-2.480000e+00,-2.476000e+00
-5.254200e-02,-2.454933e+00,-2.476000e+00
-5.241600e-02,-2.443600e+00,-2.451200e+00
-5.229000e-02,-2.432267e+00,-2.439867e+00
-5.216400e-02,-2.375600e+00,-2.405867e+00
-5.203800e-02,-2.380133e+00,-2.410400e+00
-5.191200e-02,-2.323467e+00,-2.365067e+00
-5.178600e-02,-2.309733e+00,-2.349200e+00
-5.166000e-02,-2.273467e+00,-2.322133e+00
-5.153400e-02,-2.223600e+00,-2.299467e+00
-5.140800e-02,-2.180533e+00,-2.238267e+00
-5.128200e-02,-2.144133e+00,-2.204267e+00
-5.115600e-02,-2.073867e+00,-2.150000e+00
-5.103000e-02,-2.037600e+00,-2.120533e+00
-5.090400e-02,-1.985333e+00,-2.066133e+00
-5.077800e-02,-1.928667e+00,-2.018667e+00
-5.065200e-02,-1.867333e+00,-1.943867e+00
-5.052600e-02,-1.785733e+00,-1.921200e+00
-5.040000e-02,-1.728933e+00,-1.832933e+00
-5.027400e-02,-1.649600e+00,-1.780800e+00
-5.014800e-02,-1.599733e+00,-1.722000e+00
-5.002200e-02,-1.529333e+00,-1.654000e+00
-4.989600e-02,-1.440800e+00,-1.574800e+00
-4.977000e-02,-1.370533e+00,-1.509067e+00
-4.964400e-02,-1.291067e+00,-1.425333e+00
-4.951800e-02,-1.223067e+00,-1.373200e+00
-4.939200e-02,-1.134533e+00,-1.287200e+00
-4.926600e-02,-1.055200e+00,-1.214667e+00
-4.914000e-02,-9.666667e-01,-1.126400e+00
-4.901400e-02,-8.941333e-01,-1.058400e+00
-4.888800e-02,-7.988000e-01,-9.565334e-01
-4.876200e-02,-7.148000e-01,-8.885334e-01
-4.863600e-02,-6.173334e-01,-7.844000e-01
-4.851000e-02,-5.265334e-01,-6.916000e-01
-4.838400e-02,-4.313333e-01,-6.281334e-01
-4.825800e-02,-3.609333e-01,-5.285333e-01
-4.813200e-02,-2.610667e-01,-4.357333e-01
-4.800600e-02,-1.681333e-01,-3.564000e-01
-4.788000e-02,-7.960000e-02,-2.545334e-01
-4.775400e-02,8.800000e-03,-1.888000e-01
-4.762800e-02,9.280000e-02,-7.786667e-02
-4.750200e-02,1.949333e-01,1.040000e-02
-4.737600e-02,2.833333e-01,1.033333e-01
-4.725000e-02,3.718667e-01,1.916000e-01
-4.712400e-02,4.581333e-01,2.732000e-01
-4.699800e-02,5.601333e-01,3.660000e-01
-4.687200e-02,6.486667e-01,4.633333e-01
-4.674600e-02,7.280000e-01,5.540000e-01
-4.662000e-02,8.120000e-01,6.286667e-01
-4.649400e-02,8.982667e-01,7.260000e-01
-4.636800e-02,9.866667e-01,8.030667e-01
-4.624200e-02,1.077467e+00,9.049333e-01
-4.611600e-02,1.159067e+00,9.820000e-01
-4.599000e-02,1.224933e+00,1.058933e+00
-4.586400e-02,1.318000e+00,1.133733e+00
-4.573800e-02,1.376933e+00,1.219733e+00
-4.561200e-02,1.460800e+00,1.294400e+00
-4.548600e-02,1.542533e+00,1.373733e+00
-4.536000e-02,1.610667e+00,1.441600e+00
-4.523400e-02,1.662800e+00,1.523200e+00
-4.510800e-02,1.746667e+00,1.591067e+00
-4.498200e-02,1.805733e+00,1.645467e+00
-4.485600e-02,1.869200e+00,1.729200e+00
-4.473000e-02,1.928267e+00,1.790400e+00
-4.460400e-02,1.991733e+00,1.860667e+00
-4.447800e-02,2.039333e+00,1.910400e+00
-4.435200e-02,2.096133e+00,1.955733e+00
-4.422600e-02,2.116533e+00,2.019067e+00
-4.410000e-02,2.182267e+00,2.071200e+00
-4.397400e-02,2.214133e+00,2.116533e+00
-4.384800e-02,2.254933e+00,2.146000e+00
-4.372200e-02,2.295733e+00,2.179867e+00
-4.359600e-02,2.327467e+00,2.225200e+00
-4.347000e-02,2.352533e+00,2.263733e+00
-4.334400e-02,2.393333e+00,2.297733e+00
-4.321800e-02,2.402400e+00,2.322533e+00
-4.309200e-02,2.434133e+00,2.345200e+00
-4.296600e-02,2.445467e+00,2.370133e+00
-4.284000e-02,2.452267e+00,2.392800e+00
-4.271400e-02,2.484133e+00,2.410933e+00
-4.258800e-02,2.477200e+00,2.424533e+00
-4.246200e-02,2.488667e+00,2.442667e+00
-4.233600e-02,2.486400e+00,2.426800e+00
-4.221000e-02,2.486400e+00,2.442667e+00
-4.208400e-02,2.488667e+00,2.449467e+00
-4.195800e-02,2.481867e+00,2.442667e+00
-4.183200e-02,2.463600e+00,2.422267e+00
-4.170600e-02,2.450000e+00,2.424533e+00
-4.158000e-02,2.438667e+00,2.410933e+00
-4.145400e-02,2.404667e+00,2.392800e+00
-4.132800e-02,2.382000e+00,2.370133e+00
-4.120200e-02,2.348000e+00,2.345200e+00
-4.107600e-02,2.341200e+00,2.324800e+00
-4.095000e-02,2.284400e+00,2.297733e+00
-4.082400e-02,2.250400e+00,2.270533e+00
-4.069800e-02,2.211867e+00,2.222933e+00
-4.057200e-02,2.180000e+00,2.175333e+00
-4.044600e-02,2.123333e+00,2.155067e+00
-4.032000e-02,2.073467e+00,2.121067e+00
-4.019400e-02,2.018933e+00,2.055333e+00
-4.006800e-02,1.969067e+00,2.016933e+00
-3.994200e-02,1.905600e+00,1.946667e+00
-3.981600e-02,1.862400e+00,1.896800e+00
-3.969000e-02,1.787600e+00,1.844800e+00
-3.956400e-02,1.721733e+00,1.785867e+00
-3.943800e-02,1.656000e+00,1.727067e+00
-3.931200e-02,1.596933e+00,1.663600e+00
-3.918600e-02,1.510800e+00,1.588800e+00
-3.906000e-02,1.442667e+00,1.530000e+00
-3.893400e-02,1.365600e+00,1.437200e+00
-3.880800e-02,1.290667e+00,1.387333e+00
-3.868200e-02,1.200000e+00,1.305733e+00
-3.855600e-02,1.122800e+00,1.228800e+00
-3.843000e-02,1.057067e+00,1.147333e+00
-3.830400e-02,9.662667e-01,1.061200e+00
-3.817800e-02,8.641334e-01,9.842667e-01
-3.805200e-02,7.961333e-01,9.072000e-01
-3.792600e-02,6.940000e-01,8.257334e-01
-3.780000e-02,6.237333e-01,7.441334e-01
-3.767400e-02,5.238667e-01,6.400000e-01
-3.754800e-02,4.490667e-01,5.810667e-01
-3.742200e-02,3.514667e-01,4.746667e-01
-3.729600e-02,2.402667e-01,3.841333e-01
-3.717000e-02,1.632000e-01,3.070667e-01
-3.704400e-02,7.693333e-02,2.165333e-01
-3.691800e-02,-2.746667e-02,1.214667e-01
-3.679200e-02,-1.045333e-01,2.853333e-02
-3.666600e-02,-1.885333e-01,-5.520000e-02
-3.654000e-02,-2.929333e-01,-1.368000e-01
-3.641400e-02,-3.858667e-01,-2.273333e-01
-3.628800e-02,-4.766667e-01,-3.133333e-01
-3.616200e-02,-5.720000e-01,-4.221333e-01
-3.603600e-02,-6.513333e-01,-4.990667e-01
-3.591000e-02,-7.534667e-01,-5.852000e-01
-3.578400e-02,-8.237333e-01,-6.689333e-01
-3.565800e-02,-9.077333e-01,-7.572000e-01
-3.553200e-02,-9.916000e-01,-8.456000e-01
-3.540600e-02,-1.064267e+00,-9.248000e-01
-3.528000e-02,-1.168667e+00,-1.004133e+00
-3.515400e-02,-1.250267e+00,-1.090133e+00
-3.502800e-02,-1.309333e+00,-1.160400e+00
-3.490200e-02,-1.395467e+00,-1.246400e+00
-3.477600e-02,-1.463600e+00,-1.309867e+00
-3.465000e-02,-1.549733e+00,-1.400400e+00
-3.452400e-02,-1.622400e+00,-1.459333e+00
-3.439800e-02,-1.701733e+00,-1.545333e+00
-3.427200e-02,-1.747200e+00,-1.602000e+00
-3.414600e-02,-1.831067e+00,-1.685733e+00
-3.402000e-02,-1.881067e+00,-1.733333e+00
-3.389400e-02,-1.942267e+00,-1.808000e+00
-3.376800e-02,-1.992133e+00,-1.869200e+00
-3.364200e-02,-2.035333e+00,-1.914400e+00
-3.351600e-02,-2.092000e+00,-1.980133e+00
-3.339000e-02,-2.144133e+00,-2.039067e+00
-3.326400e-02,-2.198667e+00,-2.095600e+00
-3.313800e-02,-2.234933e+00,-2.138667e+00
-3.301200e-02,-2.268933e+00,-2.177200e+00
-3.288600e-02,-2.307467e+00,-2.215600e+00
-3.276000e-02,-2.346133e+00,-2.242800e+00
-3.263400e-02,-2.380133e+00,-2.299467e+00
-3.250800e-02,-2.400533e+00,-2.322133e+00
-3.238200e-02,-2.432267e+00,-2.353733e+00
-3.225600e-02,-2.436800e+00,-2.371867e+00
-3.213000e-02,-2.484533e+00,-2.424000e+00
-3.200400e-02,-2.480000e+00,-2.428533e+00
-3.187800e-02,-2.500400e+00,-2.455733e+00
-3.175200e-02,-2.495867e+00,-2.460267e+00
-3.162600e-02,-2.511733e+00,-2.485067e+00
-3.150000e-02,-2.509467e+00,-2.469333e+00
-3.137400e-02,-2.511733e+00,-2.482800e+00
-3.124800e-02,-2.502667e+00,-2.480533e+00
-3.112200e-02,-2.507200e+00,-2.494133e+00
-3.099600e-02,-2.482267e+00,-2.476000e+00
-3.087000e-02,-2.466400e+00,-2.462533e+00
-3.074400e-02,-2.439067e+00,-2.460267e+00
-3.061800e-02,-2.436800e+00,-2.444400e+00
-3.049200e-02,-2.400533e+00,-2.426267e+00
-3.036600e-02,-2.382400e+00,-2.414933e+00
-3.024000e-02,-2.341600e+00,-2.376400e+00
-3.011400e-02,-2.305200e+00,-2.353733e+00
-2.998800e-02,-2.257600e+00,-2.313067e+00
-2.986200e-02,-2.232667e+00,-2.288133e+00
-2.973600e-02,-2.182800e+00,-2.245067e+00
-2.961000e-02,-2.155467e+00,-2.215600e+00
-2.948400e-02,-2.107867e+00,-2.170400e+00
-2.935800e-02,-2.051200e+00,-2.131867e+00
-2.923200e-02,-1.978533e+00,-2.068400e+00
-2.910600e-02,-1.944533e+00,-2.027733e+00
-2.898000e-02,-1.867333e+00,-1.971067e+00
-2.885400e-02,-1.819733e+00,-1.925733e+00
-2.872800e-02,-1.742667e+00,-1.857867e+00
-2.860200e-02,-1.688133e+00,-1.803467e+00
-2.847600e-02,-1.615600e+00,-1.740133e+00
-2.835000e-02,-1.547467e+00,-1.672133e+00
-2.822400e-02,-1.465867e+00,-1.597467e+00
-2.809800e-02,-1.404533e+00,-1.531733e+00
-2.797200e-02,-1.318400e+00,-1.463733e+00
-2.784600e-02,-1.227600e+00,-1.373200e+00
-2.772000e-02,-1.164133e+00,-1.305333e+00
-2.759400e-02,-1.077867e+00,-1.219200e+00
-2.746800e-02,-9.916000e-01,-1.151333e+00
-2.734200e-02,-9.032000e-01,-1.060667e+00
-2.721600e-02,-8.146667e-01,-9.905334e-01
-2.709000e-02,-7.421333e-01,-9.248000e-01
-2.696400e-02,-6.558667e-01,-8.320000e-01
-2.683800e-02,-5.560000e-01,-7.278666e-01
-2.671200e-02,-4.630667e-01,-6.394667e-01
-2.658600e-02,-3.858667e-01,-5.580000e-01
-2.646000e-02,-2.861333e-01,-4.560000e-01
-2.633400e-02,-1.930667e-01,-3.745333e-01
-2.620800e-02,-1.000000e-01,-2.885333e-01
-2.608200e-02,-2.293333e-02,-1.956000e-01
-2.595600e-02,7.013334e-02,-9.146667e-02
-2.583000e-02,1.654667e-01,-1.440000e-02
-2.570400e-02,2.493333e-01,7.386667e-02
-2.557800e-02,3.469333e-01,1.689333e-01
-2.545200e-02,4.468000e-01,2.686667e-01
-2.532600e-02,5.374666e-01,3.433333e-01
-2.520000e-02,6.146667e-01,4.429334e-01
-2.507400e-02,7.030666e-01,5.290667e-01
-2.494800e-02,8.052000e-01,6.128000e-01
-2.482200e-02,8.754667e-01,7.012000e-01
-2.469600e-02,9.776000e-01,7.917333e-01
-2.457000e-02,1.043467e+00,8.641334e-01
-2.444400e-02,1.134133e+00,9.616000e-01
-2.431800e-02,1.209067e+00,1.038533e+00
-2.419200e-02,1.299733e+00,1.117867e+00
-2.406600e-02,1.365600e+00,1.208400e+00
-2.394000e-02,1.431333e+00,1.274133e+00
-2.381400e-02,1.506267e+00,1.366933e+00
-2.368800e-02,1.599200e+00,1.430400e+00
-2.356200e-02,1.646933e+00,1.500533e+00
-2.343600e-02,1.721733e+00,1.566267e+00
-2.331000e-02,1.783067e+00,1.631867e+00
-2.318400e-02,1.844267e+00,1.697600e+00
-2.305800e-02,1.896400e+00,1.772267e+00
-2.293200e-02,1.964533e+00,1.833467e+00
-2.280600e-02,2.012133e+00,1.883200e+00
-2.268000e-02,2.064400e+00,1.942133e+00
-2.255400e-02,2.112000e+00,1.992000e+00
-2.242800e-02,2.177733e+00,2.059867e+00
-2.230200e-02,2.202800e+00,2.100667e+00
-2.217600e-02,2.243600e+00,2.146000e+00
-2.205000e-02,2.279867e+00,2.184400e+00
-2.192400e-02,2.318400e+00,2.218400e+00
-2.179800e-02,2.359333e+00,2.252400e+00
-2.167200e-02,2.388800e+00,2.297733e+00
-2.154600e-02,2.409200e+00,2.318000e+00
-2.142000e-02,2.425067e+00,2.347467e+00
-2.129400e-02,2.443200e+00,2.374667e+00
-2.116800e-02,2.468133e+00,2.386000e+00
-2.104200e-02,2.472667e+00,2.397333e+00
-2.091600e-02,2.486400e+00,2.431333e+00
-2.079000e-02,2.486400e+00,2.422267e+00
-2.066400e-02,2.490933e+00,2.435867e+00
-2.053800e-02,2.468133e+00,2.438133e+00
-2.041200e-02,2.488667e+00,2.438133e+00
-2.028600e-02,2.479600e+00,2.442667e+00
-2.016000e-02,2.472667e+00,2.429067e+00
-2.003400e-02,2.454533e+00,2.420000e+00
-1.990800e-02,2.436400e+00,2.415467e+00
-1.978200e-02,2.411467e+00,2.399600e+00
-1.965600e-02,2.384267e+00,2.386000e+00
-1.953000e-02,2.359333e+00,2.352000e+00
-1.940400e-02,2.336667e+00,2.331600e+00
-1.927800e-02,2.295733e+00,2.304533e+00
-1.915200e-02,2.264000e+00,2.275067e+00
-1.902600e-02,2.205067e+00,2.241067e+00
-1.890000e-02,2.168667e+00,2.195733e+00
-1.877400e-02,2.148267e+00,2.177600e+00
-1.864800e-02,2.078000e+00,2.125600e+00
-1.852200e-02,2.046267e+00,2.059867e+00
-1.839600e-02,1.973600e+00,2.019067e+00
-1.827000e-02,1.912400e+00,1.973867e+00
-1.814400e-02,1.866933e+00,1.924000e+00
-1.801800e-02,1.803467e+00,1.856133e+00
-1.789200e-02,1.746667e+00,1.801733e+00
-1.776600e-02,1.685467e+00,1.736000e+00
-1.764000e-02,1.608400e+00,1.679467e+00
-1.751400e-02,1.528933e+00,1.606933e+00
-1.738800e-02,1.474533e+00,1.541333e+00
-1.726200e-02,1.386000e+00,1.475600e+00
-1.713600e-02,1.299733e+00,1.403200e+00
-1.701000e-02,1.234000e+00,1.335200e+00
-1.688400e-02,1.152267e+00,1.253733e+00
-1.675800e-02,1.066133e+00,1.169867e+00
-1.663200e-02,9.798667e-01,1.099733e+00
-1.650600e-02,8.846667e-01,1.011333e+00
-1.638000e-02,8.233333e-01,9.321333e-01
-1.625400e-02,7.348000e-01,8.484000e-01
-1.612800e-02,6.509333e-01,7.668000e-01
-1.600200e-02,5.578667e-01,6.762667e-01
-1.587600e-02,4.672000e-01,5.878667e-01
-1.575000e-02,3.741333e-01,5.177333e-01
-1.562400e-02,2.856000e-01,4.136000e-01
-1.549800e-02,1.904000e-01,3.365333e-01
-1.537200e-02,1.086667e-01,2.346667e-01
-1.524600e-02,1.800000e-02,1.553333e-01
-1.512000e-02,-9.093334e-02,6.933334e-02
-1.499400e-02,-1.772000e-01,-1.440000e-02
-1.486800e-02,-2.542667e-01,-1.050667e-01
-1.474200e-02,-3.541333e-01,-2.069333e-01
-1.461600e-02,-4.449333e-01,-2.885333e-01
-1.449000e-02,-5.378667e-01,-3.858667e-01
-1.436400e-02,-6.241333e-01,-4.718667e-01
-1.423800e-02,-7.125334e-01,-5.670667e-01
-1.411200e-02,-7.874667e-01,-6.485333e-01
-1.398600e-02,-8.941333e-01,-7.301334e-01
-1.386000e-02,-9.644000e-01,-8.070667e-01
-1.373400e-02,-1.057467e+00,-9.089333e-01
-1.360800e-02,-1.134533e+00,-9.860000e-01
-1.348200e-02,-1.229867e+00,-1.062933e+00
-1.335600e-02,-1.295600e+00,-1.151333e+00
-1.323000e-02,-1.388667e+00,-1.232800e+00
-1.310400e-02,-1.436267e+00,-1.296267e+00
-1.297800e-02,-1.527067e+00,-1.375467e+00
-1.285200e-02,-1.588400e+00,-1.448000e+00
-1.272600e-02,-1.667733e+00,-1.515867e+00
-1.260000e-02,-1.728933e+00,-1.583867e+00
-1.247400e-02,-1.812933e+00,-1.656267e+00
-1.234800e-02,-1.858267e+00,-1.724267e+00
-1.222200e-02,-1.933200e+00,-1.792133e+00
-1.209600e-02,-1.969467e+00,-1.851067e+00
-1.197000e-02,-2.033067e+00,-1.912133e+00
-1.184400e-02,-2.087467e+00,-1.959733e+00
-1.171800e-02,-2.155467e+00,-2.027733e+00
-1.159200e-02,-2.173733e+00,-2.059333e+00
-1.146600e-02,-2.221333e+00,-2.118267e+00
-1.134000e-02,-2.257600e+00,-2.156800e+00
-1.121400e-02,-2.298400e+00,-2.211067e+00
-1.108800e-02,-2.334800e+00,-2.247333e+00
-1.096200e-02,-2.371067e+00,-2.294933e+00
-1.083600e-02,-2.396000e+00,-2.304000e+00
-1.071000e-02,-2.439067e+00,-2.346933e+00
-1.058400e-02,-2.441333e+00,-2.376400e+00
-1.045800e-02,-2.473200e+00,-2.408133e+00
-1.033200e-02,-2.473200e+00,-2.428533e+00
-1.020600e-02,-2.493600e+00,-2.462533e+00
-1.008000e-02,-2.498133e+00,-2.451200e+00
-9.954000e-03,-2.511733e+00,-2.471600e+00
-9.828000e-03,-2.509467e+00,-2.478267e+00
-9.702000e-03,-2.504933e+00,-2.485067e+00
-9.576000e-03,-2.493600e+00,-2.494133e+00
-9.450000e-03,-2.504933e+00,-2.496400e+00
-9.324000e-03,-2.495867e+00,-2.473867e+00
-9.198000e-03,-2.486800e+00,-2.473867e+00
-9.072000e-03,-2.457200e+00,-2.460267e+00
-8.946000e-03,-2.432267e+00,-2.444400e+00
-8.820000e-03,-2.407333e+00,-2.430800e+00
-8.694000e-03,-2.371067e+00,-2.410400e+00
-8.568000e-03,-2.359733e+00,-2.374133e+00
-8.442000e-03,-2.321200e+00,-2.358267e+00
-8.316000e-03,-2.268933e+00,-2.328933e+00
-8.190000e-03,-2.246267e+00,-2.290400e+00
-8.064000e-03,-2.198667e+00,-2.265467e+00
-7.938000e-03,-2.166800e+00,-2.233733e+00
-7.812000e-03,-2.105600e+00,-2.177200e+00
-7.686000e-03,-2.076133e+00,-2.150000e+00
-7.560000e-03,-1.998933e+00,-2.097867e+00
-7.434000e-03,-1.962667e+00,-2.045733e+00
-7.308000e-03,-1.892400e+00,-1.982400e+00
-7.182000e-03,-1.831067e+00,-1.932533e+00
-7.056000e-03,-1.767600e+00,-1.878267e+00
-6.930000e-03,-1.706267e+00,-1.821600e+00
-6.804000e-03,-1.633733e+00,-1.746933e+00
-6.678000e-03,-1.574667e+00,-1.688000e+00
-6.552000e-03,-1.490800e+00,-1.613200e+00
-6.426000e-03,-1.427200e+00,-1.549867e+00
-6.300000e-03,-1.347867e+00,-1.475067e+00
-6.174000e-03,-1.259333e+00,-1.409467e+00
-6.048000e-03,-1.184533e+00,-1.336933e+00
-5.922000e-03,-1.105067e+00,-1.255467e+00
-5.796000e-03,-1.014400e+00,-1.169467e+00
-5.670000e-03,-9.349334e-01,-1.090133e+00
-5.544000e-03,-8.600000e-01,-1.010933e+00
-5.418000e-03,-7.693334e-01,-9.202667e-01
-5.292000e-03,-6.694667e-01,-8.274667e-01
-5.166000e-03,-5.878667e-01,-7.504000e-01
-5.040000e-03,-4.902667e-01,-6.712000e-01
-4.914000e-03,-4.108000e-01,-5.784000e-01
-4.788000e-03,-3.133333e-01,-4.922667e-01
-4.662000e-03,-2.270667e-01,-4.108000e-01
-4.536000e-03,-1.226667e-01,-3.246667e-01
-4.410000e-03,-5.693333e-02,-2.318667e-01
-4.284000e-03,6.106667e-02,-1.232000e-01
-4.158000e-03,1.336000e-01,-3.706667e-02
-4.032000e-03,2.289333e-01,4.666667e-02
-3.906000e-03,3.242667e-01,1.417333e-01
-3.780000e-03,4.104000e-01,2.346667e-01
-3.654000e-03,5.012000e-01,3.161334e-01
-3.528000e-03,5.920000e-01,4.136000e-01
-3.402000e-03,6.758667e-01,4.814667e-01
-3.276000e-03,7.666667e-01,5.856000e-01
-3.150000e-03,8.460000e-01,6.785333e-01
-3.024000e-03,9.504000e-01,7.622667e-01
-2.898000e-03,1.018400e+00,8.416000e-01
-2.772000e-03,1.106933e+00,9.298667e-01
-2.646000e-03,1.175067e+00,1.013600e+00
-2.520000e-03,1.277067e+00,1.099733e+00
-2.394000e-03,1.338400e+00,1.178933e+00
-2.268000e-03,1.415467e+00,1.242400e+00
-2.142000e-03,1.488133e+00,1.317067e+00
-2.016000e-03,1.560667e+00,1.414533e+00
-1.890000e-03,1.622000e+00,1.471067e+00
