Time(s),CH1V,CH2V
-4.850000e-04,1.932800e+00,1.848000e-01
-4.840300e-04,1.881733e+00,2.097333e-01
-4.830600e-04,1.819867e+00,2.142667e-01
-4.820900e-04,1.768000e+00,2.153333e-01
-4.811200e-04,1.713867e+00,2.210667e-01
-4.801500e-04,1.640133e+00,2.414667e-01
-4.791800e-04,1.564133e+00,2.392000e-01
-4.782100e-04,1.499200e+00,2.417333e-01
-4.772400e-04,1.429067e+00,2.528000e-01
-4.762700e-04,1.362133e+00,2.490667e-01
-4.753000e-04,1.293600e+00,2.573333e-01
-4.743300e-04,1.203600e+00,2.561333e-01
-4.733600e-04,1.130800e+00,2.641333e-01
-4.723900e-04,1.060667e+00,2.634667e-01
-4.714200e-04,9.730667e-01,2.692000e-01
-4.704500e-04,8.829333e-01,2.714667e-01
-4.694800e-04,8.210667e-01,2.664000e-01
-4.685100e-04,7.170666e-01,2.705333e-01
-4.675400e-04,6.356000e-01,2.873333e-01
-4.665700e-04,5.568000e-01,2.870667e-01
-4.656000e-04,4.694667e-01,2.754667e-01
-4.646300e-04,3.829333e-01,2.841333e-01
-4.636600e-04,2.924000e-01,2.770667e-01
-4.626900e-04,2.057333e-01,2.821333e-01
-4.617200e-04,1.109333e-01,3.002667e-01
-4.607500e-04,3.360000e-02,2.770667e-01
-4.597800e-04,-5.413333e-02,2.810667e-01
-4.588100e-04,-1.468000e-01,2.609333e-01
-4.578400e-04,-2.452000e-01,2.697333e-01
-4.568700e-04,-3.229333e-01,2.765333e-01
-4.559000e-04,-4.080000e-01,2.652000e-01
-4.549300e-04,-5.008000e-01,2.609333e-01
-4.539600e-04,-5.696000e-01,2.528000e-01
-4.529900e-04,-6.558667e-01,2.584000e-01
-4.520200e-04,-7.414667e-01,2.460000e-01
-4.510500e-04,-8.242667e-01,2.360000e-01
-4.500800e-04,-9.190667e-01,2.392000e-01
-4.491100e-04,-1.007600e+00,2.380000e-01
-4.481400e-04,-1.082933e+00,2.329333e-01
-4.471700e-04,-1.156133e+00,2.238667e-01
-4.462000e-04,-1.243467e+00,2.165333e-01
-4.452300e-04,-1.314667e+00,2.094667e-01
-4.442600e-04,-1.389200e+00,2.034667e-01
-4.432900e-04,-1.466133e+00,1.964000e-01
-4.423200e-04,-1.531600e+00,1.814667e-01
-4.413500e-04,-1.595200e+00,1.684000e-01
-4.403800e-04,-1.665467e+00,1.712000e-01
-4.394100e-04,-1.744000e+00,1.633333e-01
-4.384400e-04,-1.792533e+00,1.508000e-01
-4.374700e-04,-1.852133e+00,1.378667e-01
-4.365000e-04,-1.913867e+00,1.372000e-01
-4.355300e-04,-1.964667e+00,1.162667e-01
-4.345600e-04,-2.019333e+00,1.033333e-01
-4.335900e-04,-2.074400e+00,1.041333e-01
-4.326200e-04,-2.113600e+00,9.986667e-02
-4.316500e-04,-2.152400e+00,7.440000e-02
-4.306800e-04,-2.198667e+00,6.933334e-02
-4.297100e-04,-2.230933e+00,5.853333e-02
-4.287400e-04,-2.274000e+00,5.746667e-02
-4.277700e-04,-2.304933e+00,3.080000e-02
-4.268000e-04,-2.338133e+00,2.973333e-02
-4.258300e-04,-2.351733e+00,2.293333e-02
-4.248600e-04,-2.380667e+00,6.533334e-03
-4.238900e-04,-2.403600e+00,2.800000e-03
-4.229200e-04,-2.420933e+00,-1.213333e-02
-4.219500e-04,-2.442533e+00,-2.213333e-02
-4.209800e-04,-2.460133e+00,-2.800000e-02
-4.200100e-04,-2.454667e+00,-5.493334e-02
-4.190400e-04,-2.470933e+00,-5.866667e-02
-4.180700e-04,-2.461467e+00,-7.000000e-02
-4.171000e-04,-2.471467e+00,-8.800000e-02
-4.161300e-04,-2.462933e+00,-9.093334e-02
-4.151600e-04,-2.459600e+00,-9.146667e-02
-4.141900e-04,-2.436800e+00,-1.045333e-01
-4.132200e-04,-2.424400e+00,-1.305333e-01
-4.122500e-04,-2.411067e+00,-1.217333e-01
-4.112800e-04,-2.381200e+00,-1.446667e-01
-4.103100e-04,-2.358267e+00,-1.540000e-01
-4.093400e-04,-2.342133e+00,-1.588000e-01
-4.083700e-04,-2.305867e+00,-1.804000e-01
-4.074000e-04,-2.284800e+00,-1.820000e-01
-4.064300e-04,-2.241200e+00,-1.948000e-01
-4.054600e-04,-2.194133e+00,-1.961333e-01
-4.044900e-04,-2.164267e+00,-2.081333e-01
-4.035200e-04,-2.130533e+00,-2.160000e-01
-4.025500e-04,-2.084000e+00,-2.185333e-01
-4.015800e-04,-2.026800e+00,-2.358667e-01
-4.006100e-04,-1.972000e+00,-2.420000e-01
-3.996400e-04,-1.912800e+00,-2.477333e-01
-3.986700e-04,-1.864267e+00,-2.570667e-01
-3.977000e-04,-1.802667e+00,-2.664000e-01
-3.967300e-04,-1.741733e+00,-2.714667e-01
-3.957600e-04,-1.683600e+00,-2.828000e-01
-3.947900e-04,-1.605333e+00,-2.729333e-01
-3.938200e-04,-1.544667e+00,-2.941333e-01
-3.928500e-04,-1.474000e+00,-2.933333e-01
-3.918800e-04,-1.404533e+00,-2.908000e-01
-3.909100e-04,-1.330000e+00,-3.009333e-01
-3.899400e-04,-1.256000e+00,-3.060000e-01
-3.889700e-04,-1.183600e+00,-3.176000e-01
-3.880000e-04,-1.105067e+00,-3.168000e-01
-3.870300e-04,-1.022800e+00,-3.108000e-01
-3.860600e-04,-9.434667e-01,-3.269333e-01
-3.850900e-04,-8.524000e-01,-3.286667e-01
-3.841200e-04,-7.806666e-01,-3.156000e-01
-3.831500e-04,-6.833333e-01,-3.284000e-01
-3.821800e-04,-5.992000e-01,-3.326667e-01
-3.812100e-04,-5.257334e-01,-3.414667e-01
-3.802400e-04,-4.301333e-01,-3.337334e-01
-3.792700e-04,-3.518667e-01,-3.352000e-01
-3.783000e-04,-2.673333e-01,-3.354667e-01
-3.773300e-04,-1.732000e-01,-3.301333e-01
-3.763600e-04,-8.413333e-02,-3.405333e-01
-3.753900e-04,-2.666667e-04,-3.286667e-01
-3.744200e-04,9.786667e-02,-3.314667e-01
-3.734500e-04,1.818667e-01,-3.334667e-01
-3.724800e-04,2.629333e-01,-3.281333e-01
-3.715100e-04,3.429333e-01,-3.221333e-01
-3.705400e-04,4.428000e-01,-3.286667e-01
-3.695700e-04,5.420000e-01,-3.088000e-01
-3.686000e-04,6.192000e-01,-3.042667e-01
-3.676300e-04,7.056000e-01,-3.072000e-01
-3.666600e-04,7.757334e-01,-2.924000e-01
-3.656900e-04,8.622667e-01,-2.969333e-01
-3.647200e-04,9.514667e-01,-2.828000e-01
-3.637500e-04,1.049333e+00,-2.910667e-01
-3.627800e-04,1.102933e+00,-2.788000e-01
-3.618100e-04,1.191733e+00,-2.649333e-01
-3.608400e-04,1.274800e+00,-2.726667e-01
-3.598700e-04,1.336667e+00,-2.550667e-01
-3.589000e-04,1.407600e+00,-2.465333e-01
-3.579300e-04,1.479333e+00,-2.389333e-01
-3.569600e-04,1.559600e+00,-2.306667e-01
-3.559900e-04,1.615200e+00,-2.273333e-01
-3.550200e-04,1.696267e+00,-2.188000e-01
-3.540500e-04,1.748133e+00,-2.126667e-01
-3.530800e-04,1.805733e+00,-2.024000e-01
-3.521100e-04,1.867200e+00,-1.965333e-01
-3.511400e-04,1.926533e+00,-1.910667e-01
-3.501700e-04,1.973600e+00,-1.665333e-01
-3.492000e-04,2.032533e+00,-1.514667e-01
-3.482300e-04,2.076000e+00,-1.512000e-01
-3.472600e-04,2.120000e+00,-1.406667e-01
-3.462900e-04,2.163067e+00,-1.265333e-01
-3.453200e-04,2.191467e+00,-1.164000e-01
-3.443500e-04,2.233333e+00,-1.070667e-01
-3.433800e-04,2.265200e+00,-9.773333e-02
-3.424100e-04,2.303467e+00,-9.520000e-02
-3.414400e-04,2.332000e+00,-7.786667e-02
-3.404700e-04,2.353067e+00,-6.480000e-02
-3.395000e-04,2.382533e+00,-5.520000e-02
-3.385300e-04,2.395867e+00,-4.186667e-02
-3.375600e-04,2.411467e+00,-4.386667e-02
-3.365900e-04,2.424267e+00,-1.960000e-02
-3.356200e-04,2.435867e+00,-5.466667e-03
-3.346500e-04,2.439200e+00,1.720000e-02
-3.336800e-04,2.445467e+00,1.266667e-02
-3.327100e-04,2.450933e+00,2.573333e-02
-3.317400e-04,2.440933e+00,3.586667e-02
-3.307700e-04,2.432400e+00,4.160000e-02
-3.298000e-04,2.431867e+00,4.213334e-02
-3.288300e-04,2.415467e+00,7.186667e-02
-3.278600e-04,2.400133e+00,8.520000e-02
-3.268900e-04,2.378800e+00,8.493333e-02
-3.259200e-04,2.359333e+00,1.033333e-01
-3.249500e-04,2.328400e+00,1.154667e-01
-3.239800e-04,2.311067e+00,1.152000e-01
-3.230100e-04,2.270000e+00,1.278667e-01
-3.220400e-04,2.252667e+00,1.462667e-01
-3.210700e-04,2.204667e+00,1.492000e-01
-3.201000e-04,2.175467e+00,1.452000e-01
-3.191300e-04,2.121067e+00,1.661333e-01
-3.181600e-04,2.078000e+00,1.792000e-01
-3.171900e-04,2.031200e+00,1.692000e-01
-3.162200e-04,1.977067e+00,1.853333e-01
-3.152500e-04,1.929067e+00,1.996000e-01
-3.142800e-04,1.864667e+00,2.006667e-01
-3.133100e-04,1.810000e+00,2.009333e-01
-3.123400e-04,1.746133e+00,2.273333e-01
-3.113700e-04,1.688000e+00,2.312000e-01
-3.104000e-04,1.628800e+00,2.324000e-01
-3.094300e-04,1.552133e+00,2.548000e-01
-3.084600e-04,1.490933e+00,2.386667e-01
-3.074900e-04,1.416667e+00,2.468000e-01
-3.065200e-04,1.347467e+00,2.618667e-01
-3.055500e-04,1.267467e+00,2.657333e-01
-3.045800e-04,1.188667e+00,2.629333e-01
-3.036100e-04,1.102400e+00,2.586667e-01
-3.026400e-04,1.041200e+00,2.686667e-01
-3.016700e-04,9.561334e-01,2.745333e-01
-3.007000e-04,8.738667e-01,2.889333e-01
-2.997300e-04,7.890667e-01,2.912000e-01
-2.987600e-04,7.076000e-01,2.777333e-01
-2.977900e-04,6.200000e-01,2.838667e-01
-2.968200e-04,5.261334e-01,2.866667e-01
-2.958500e-04,4.538667e-01,2.861333e-01
-2.948800e-04,3.650667e-01,2.833333e-01
-2.939100e-04,2.700000e-01,2.893333e-01
-2.929400e-04,1.949333e-01,2.941333e-01
-2.919700e-04,9.706667e-02,2.798667e-01
-2.910000e-04,6.533334e-03,2.777333e-01
-2.900300e-04,-7.426666e-02,2.760000e-01
-2.890600e-04,-1.613333e-01,2.798667e-01
-2.880900e-04,-2.458667e-01,2.768000e-01
-2.871200e-04,-3.416000e-01,2.709333e-01
-2.861500e-04,-4.290667e-01,2.629333e-01
-2.851800e-04,-5.164000e-01,2.674667e-01
-2.842100e-04,-5.989333e-01,2.596000e-01
-2.832400e-04,-6.898667e-01,2.596000e-01
-2.822700e-04,-7.673333e-01,2.538667e-01
-2.813000e-04,-8.476000e-01,2.425333e-01
-2.803300e-04,-9.276000e-01,2.364000e-01
-2.793600e-04,-1.017733e+00,2.380000e-01
-2.783900e-04,-1.099733e+00,2.281333e-01
-2.774200e-04,-1.164133e+00,2.125333e-01
-2.764500e-04,-1.258000e+00,2.190667e-01
-2.754800e-04,-1.341067e+00,2.074667e-01
-2.745100e-04,-1.406000e+00,2.069333e-01
-2.735400e-04,-1.469200e+00,1.882667e-01
-2.725700e-04,-1.552667e+00,1.868000e-01
-2.716000e-04,-1.609867e+00,1.814667e-01
-2.706300e-04,-1.669467e+00,1.709333e-01
-2.696600e-04,-1.744933e+00,1.644000e-01
-2.686900e-04,-1.809867e+00,1.573333e-01
-2.677200e-04,-1.842400e+00,1.372000e-01
-2.667500e-04,-1.916133e+00,1.324000e-01
-2.657800e-04,-1.968400e+00,1.265333e-01
-2.648100e-04,-2.017733e+00,1.117333e-01
-2.638400e-04,-2.070400e+00,1.044000e-01
-2.628700e-04,-2.131067e+00,8.466667e-02
-2.619000e-04,-2.180533e+00,7.560000e-02
-2.609300e-04,-2.210800e+00,6.253333e-02
-2.599600e-04,-2.250800e+00,6.480000e-02
-2.589900e-04,-2.284267e+00,4.666667e-02
-2.580200e-04,-2.303600e+00,3.653333e-02
-2.570500e-04,-2.344133e+00,2.346667e-02
-2.560800e-04,-2.373333e+00,1.493333e-02
-2.551100e-04,-2.391733e+00,3.066667e-03
-2.541400e-04,-2.412400e+00,-1.466667e-03
-2.531700e-04,-2.435200e+00,-9.066666e-03
-2.522000e-04,-2.441333e+00,-3.026667e-02
-2.512300e-04,-2.459200e+00,-4.106667e-02
-2.502600e-04,-2.454400e+00,-5.346667e-02
-2.492900e-04,-2.474000e+00,-6.826667e-02
-2.483200e-04,-2.465200e+00,-7.000000e-02
-2.473500e-04,-2.477733e+00,-7.053334e-02
-2.463800e-04,-2.456667e+00,-8.973333e-02
-2.454100e-04,-2.449067e+00,-1.058667e-01
-2.444400e-04,-2.439067e+00,-1.096000e-01
-2.434700e-04,-2.438000e+00,-1.288000e-01
-2.425000e-04,-2.410133e+00,-1.361333e-01
-2.415300e-04,-2.402267e+00,-1.466667e-01
-2.405600e-04,-2.367600e+00,-1.582667e-01
-2.395900e-04,-2.345467e+00,-1.620000e-01
-2.386200e-04,-2.310933e+00,-1.684000e-01
-2.376500e-04,-2.274667e+00,-1.829333e-01
-2.366800e-04,-2.246267e+00,-1.978667e-01
-2.357100e-04,-2.204267e+00,-2.086667e-01
-2.347400e-04,-2.169200e+00,-2.177333e-01
-2.337700e-04,-2.106800e+00,-2.270667e-01
-2.328000e-04,-2.077200e+00,-2.273333e-01
-2.318300e-04,-2.028800e+00,-2.381333e-01
-2.308600e-04,-1.976267e+00,-2.510667e-01
-2.298900e-04,-1.915600e+00,-2.573333e-01
-2.289200e-04,-1.860533e+00,-2.613333e-01
-2.279500e-04,-1.801600e+00,-2.742667e-01
-2.269800e-04,-1.725600e+00,-2.720000e-01
-2.260100e-04,-1.684800e+00,-2.876000e-01
-2.250400e-04,-1.605333e+00,-2.908000e-01
-2.240700e-04,-1.540667e+00,-2.944000e-01
-2.231000e-04,-1.472000e+00,-2.969333e-01
-2.221300e-04,-1.396933e+00,-3.020000e-01
-2.211600e-04,-1.311600e+00,-3.178667e-01
-2.201900e-04,-1.253067e+00,-3.080000e-01
-2.192200e-04,-1.173733e+00,-3.004000e-01
-2.182500e-04,-1.085200e+00,-3.080000e-01
-2.172800e-04,-1.009867e+00,-3.304000e-01
-2.163100e-04,-9.409333e-01,-3.226667e-01
-2.153400e-04,-8.481333e-01,-3.269333e-01
-2.143700e-04,-7.688000e-01,-3.284000e-01
-2.134000e-04,-6.966667e-01,-3.337334e-01
-2.124300e-04,-5.934667e-01,-3.344000e-01
-2.114600e-04,-5.101333e-01,-3.276000e-01
-2.104900e-04,-4.233333e-01,-3.272000e-01
-2.095200e-04,-3.382667e-01,-3.349333e-01
-2.085500e-04,-2.489333e-01,-3.372000e-01
-2.075800e-04,-1.664000e-01,-3.326667e-01
-2.066100e-04,-7.760000e-02,-3.236000e-01
-2.056400e-04,2.480000e-02,-3.292000e-01
-2.046700e-04,1.028000e-01,-3.236000e-01
-2.037000e-04,1.846667e-01,-3.201333e-01
-2.027300e-04,2.742667e-01,-3.188000e-01
-2.017600e-04,3.616000e-01,-3.178667e-01
-2.007900e-04,4.496000e-01,-3.125333e-01
-1.998200e-04,5.374666e-01,-3.020000e-01
-1.988500e-04,6.189333e-01,-3.102667e-01
-1.978800e-04,7.144000e-01,-3.020000e-01
-1.969100e-04,7.924000e-01,-2.926667e-01
-1.959400e-04,8.824000e-01,-2.964000e-01
-1.949700e-04,9.532000e-01,-2.820000e-01
-1.940000e-04,1.037733e+00,-2.828000e-01
-1.930300e-04,1.127867e+00,-2.805333e-01
-1.920600e-04,1.194800e+00,-2.641333e-01
-1.910900e-04,1.269733e+00,-2.520000e-01
-1.901200e-04,1.361067e+00,-2.613333e-01
-1.891500e-04,1.428267e+00,-2.502667e-01
-1.881800e-04,1.494933e+00,-2.454667e-01
-1.872100e-04,1.561200e+00,-2.394667e-01
-1.862400e-04,1.628800e+00,-2.240000e-01
-1.852700e-04,1.696533e+00,-2.094667e-01
-1.843000e-04,1.763200e+00,-2.126667e-01
-1.833300e-04,1.819067e+00,-2.006667e-01
-1.823600e-04,1.866933e+00,-1.888000e-01
-1.813900e-04,1.945467e+00,-1.820000e-01
-1.804200e-04,1.998533e+00,-1.797333e-01
-1.794500e-04,2.031467e+00,-1.597333e-01
-1.784800e-04,2.098400e+00,-1.424000e-01
-1.775100e-04,2.135867e+00,-1.388000e-01
-1.765400e-04,2.177200e+00,-1.305333e-01
-1.755700e-04,2.210133e+00,-1.192000e-01
-1.746000e-04,2.254933e+00,-9.600000e-02
-1.736300e-04,2.274267e+00,-9.173334e-02
-1.726600e-04,2.308267e+00,-8.973333e-02
-1.716900e-04,2.327867e+00,-8.386667e-02
-1.707200e-04,2.358133e+00,-5.973333e-02
-1.697500e-04,2.375467e+00,-5.893333e-02
-1.687800e-04,2.407467e+00,-3.653333e-02
-1.678100e-04,2.418267e+00,-3.480000e-02
-1.668400e-04,2.429600e+00,-2.120000e-02
-1.658700e-04,2.439600e+00,-1.533333e-02
-1.649000e-04,2.447200e+00,8.000000e-04
-1.639300e-04,2.441600e+00,9.600000e-03
-1.629600e-04,2.438667e+00,2.746667e-02
-1.619900e-04,2.440133e+00,3.133333e-02
-1.610200e-04,2.444933e+00,4.613334e-02
-1.600500e-04,2.422533e+00,5.746667e-02
-1.590800e-04,2.420533e+00,7.160000e-02
-1.581100e-04,2.397333e+00,8.200000e-02
-1.571400e-04,2.376267e+00,8.466667e-02
-1.561700e-04,2.348267e+00,1.030667e-01
-1.552000e-04,2.329733e+00,1.169333e-01
-1.542300e-04,2.298933e+00,1.242667e-01
-1.532600e-04,2.277067e+00,1.366667e-01
-1.522900e-04,2.235867e+00,1.361333e-01
-1.513200e-04,2.196000e+00,1.508000e-01
-1.503500e-04,2.166400e+00,1.553333e-01
-1.493800e-04,2.121600e+00,1.633333e-01
-1.484100e-04,2.075067e+00,1.908000e-01
-1.474400e-04,2.030267e+00,1.860000e-01
-1.464700e-04,1.970533e+00,1.978667e-01
-1.455000e-04,1.906667e+00,2.006667e-01
-1.445300e-04,1.857867e+00,2.150667e-01
-1.435600e-04,1.792133e+00,2.165333e-01
-1.425900e-04,1.733467e+00,2.318667e-01
-1.416200e-04,1.680400e+00,2.312000e-01
-1.406500e-04,1.616800e+00,2.273333e-01
-1.396800e-04,1.544800e+00,2.402667e-01
-1.387100e-04,1.474133e+00,2.453333e-01
-1.377400e-04,1.405867e+00,2.521333e-01
-1.367700e-04,1.338133e+00,2.561333e-01
-1.358000e-04,1.254400e+00,2.664000e-01
-1.348300e-04,1.174667e+00,2.652000e-01
-1.338600e-04,1.111467e+00,2.720000e-01
-1.328900e-04,1.017067e+00,2.818667e-01
-1.319200e-04,9.436000e-01,2.742667e-01
-1.309500e-04,8.625333e-01,2.697333e-01
-1.299800e-04,7.740000e-01,2.748000e-01
-1.290100e-04,6.929333e-01,2.898667e-01
-1.280400e-04,6.192000e-01,2.821333e-01
-1.270700e-04,5.238667e-01,2.785333e-01
-1.261000e-04,4.388000e-01,2.912000e-01
-1.251300e-04,3.517333e-01,2.836000e-01
-1.241600e-04,2.674667e-01,2.798667e-01
-1.231900e-04,1.801333e-01,2.793333e-01
-1.222200e-04,8.826667e-02,2.821333e-01
-1.212500e-04,-3.866667e-03,2.813333e-01
-1.202800e-04,-9.546667e-02,2.844000e-01
-1.193100e-04,-1.794667e-01,2.770667e-01
-1.183400e-04,-2.605333e-01,2.742667e-01
-1.173700e-04,-3.558667e-01,2.765333e-01
-1.164000e-04,-4.290667e-01,2.652000e-01
-1.154300e-04,-5.293334e-01,2.680000e-01
-1.144600e-04,-6.161333e-01,2.612000e-01
-1.134900e-04,-6.946667e-01,2.553333e-01
-1.125200e-04,-7.874667e-01,2.482667e-01
-1.115500e-04,-8.665333e-01,2.430667e-01
-1.105800e-04,-9.542667e-01,2.369333e-01
-1.096100e-04,-1.022267e+00,2.382667e-01
-1.086400e-04,-1.105067e+00,2.334667e-01
-1.076700e-04,-1.185067e+00,2.286667e-01
-1.067000e-04,-1.264533e+00,2.216000e-01
-1.057300e-04,-1.329067e+00,2.112000e-01
-1.047600e-04,-1.409067e+00,2.120000e-01
-1.037900e-04,-1.487067e+00,1.910667e-01
-1.028200e-04,-1.549200e+00,1.888000e-01
-1.018500e-04,-1.628000e+00,1.633333e-01
-1.008800e-04,-1.678000e+00,1.724000e-01
-9.991000e-05,-1.744533e+00,1.616000e-01
-9.894000e-05,-1.814667e+00,1.502667e-01
-9.797000e-05,-1.859467e+00,1.358667e-01
-9.700000e-05,-1.933200e+00,1.349333e-01
-9.603000e-05,-1.981067e+00,1.210667e-01
-9.506000e-05,-2.035867e+00,1.089333e-01
-9.409000e-05,-2.071600e+00,9.173334e-02
-9.312000e-05,-2.126000e+00,8.746666e-02
-9.215000e-05,-2.172800e+00,7.240000e-02
-9.118000e-05,-2.217867e+00,7.213333e-02
-9.021000e-05,-2.249733e+00,6.173334e-02
-8.924000e-05,-2.287067e+00,5.573333e-02
-8.827000e-05,-2.322800e+00,3.786667e-02
-8.730000e-05,-2.339867e+00,1.333333e-02
-8.633000e-05,-2.383200e+00,1.040000e-02
-8.536000e-05,-2.388133e+00,2.666667e-04
-8.439000e-05,-2.412400e+00,-7.066667e-03
-8.342000e-05,-2.427733e+00,-2.920000e-02
-8.245000e-05,-2.444000e+00,-2.720000e-02
-8.148000e-05,-2.443600e+00,-5.066667e-02
-8.051000e-05,-2.459200e+00,-6.400000e-02
-7.954000e-05,-2.468000e+00,-6.773333e-02
-7.857000e-05,-2.461867e+00,-7.986667e-02
-7.760000e-05,-2.459600e+00,-9.026667e-02
-7.663000e-05,-2.459600e+00,-9.320000e-02
-7.566000e-05,-2.449333e+00,-1.061333e-01
-7.469000e-05,-2.439333e+00,-1.184000e-01
-7.372000e-05,-2.427733e+00,-1.254667e-01
-7.275000e-05,-2.409333e+00,-1.300000e-01
-7.178000e-05,-2.392667e+00,-1.429333e-01
-7.081000e-05,-2.364533e+00,-1.658667e-01
-6.984000e-05,-2.344933e+00,-1.696000e-01
-6.887000e-05,-2.306133e+00,-1.862667e-01
-6.790000e-05,-2.274000e+00,-1.872000e-01
-6.693000e-05,-2.228400e+00,-2.018667e-01
-6.596000e-05,-2.187333e+00,-2.250667e-01
-6.499000e-05,-2.160667e+00,-2.188000e-01
-6.402000e-05,-2.104533e+00,-2.177333e-01
-6.305000e-05,-2.065333e+00,-2.460000e-01
-6.208000e-05,-2.019333e+00,-2.442667e-01
-6.111000e-05,-1.969467e+00,-2.494667e-01
-6.014000e-05,-1.911067e+00,-2.578667e-01
-5.917000e-05,-1.842133e+00,-2.706667e-01
-5.820000e-05,-1.790267e+00,-2.681333e-01
-5.723000e-05,-1.727333e+00,-2.717333e-01
-5.626000e-05,-1.664400e+00,-2.845333e-01
-5.529000e-05,-1.600800e+00,-2.817333e-01
-5.432000e-05,-1.533867e+00,-2.941333e-01
-5.335000e-05,-1.459867e+00,-2.946667e-01
-5.238000e-05,-1.385333e+00,-3.026667e-01
-5.141000e-05,-1.325200e+00,-3.072000e-01
-5.044000e-05,-1.234400e+00,-3.042667e-01
-4.947000e-05,-1.168933e+00,-3.208000e-01
-4.850000e-05,-1.079600e+00,-3.230667e-01
-4.753000e-05,-1.004133e+00,-3.246667e-01
-4.656000e-05,-9.145333e-01,-3.224000e-01
-4.559000e-05,-8.468000e-01,-3.238667e-01
-4.462000e-05,-7.545334e-01,-3.236000e-01
-4.365000e-05,-6.704000e-01,-3.289333e-01
-4.268000e-05,-5.901334e-01,-3.178667e-01
-4.171000e-05,-4.970667e-01,-3.309333e-01
-4.074000e-05,-4.001333e-01,-3.377333e-01
-3.977000e-05,-3.116000e-01,-3.408000e-01
-3.880000e-05,-2.396000e-01,-3.304000e-01
-3.783000e-05,-1.473333e-01,-3.256000e-01
-3.686000e-05,-5.920000e-02,-3.178667e-01
-3.589000e-05,2.306667e-02,-3.314667e-01
-3.492000e-05,1.132000e-01,-3.178667e-01
-3.395000e-05,1.932000e-01,-3.092000e-01
-3.298000e-05,2.901333e-01,-3.178667e-01
-3.201000e-05,3.801333e-01,-3.062667e-01
-3.104000e-05,4.682667e-01,-3.077333e-01
-3.007000e-05,5.570667e-01,-2.946667e-01
-2.910000e-05,6.469333e-01,-2.958667e-01
-2.813000e-05,7.226667e-01,-2.944000e-01
-2.716000e-05,7.938667e-01,-2.908000e-01
-2.619000e-05,8.950667e-01,-2.893333e-01
-2.522000e-05,9.742666e-01,-2.805333e-01
-2.425000e-05,1.057867e+00,-2.674667e-01
-2.328000e-05,1.122800e+00,-2.704000e-01
-2.231000e-05,1.211600e+00,-2.686667e-01
-2.134000e-05,1.292400e+00,-2.505333e-01
-2.037000e-05,1.363600e+00,-2.508000e-01
-1.940000e-05,1.429067e+00,-2.386667e-01
-1.843000e-05,1.513867e+00,-2.426667e-01
-1.746000e-05,1.570933e+00,-2.374667e-01
-1.649000e-05,1.642133e+00,-2.285333e-01
-1.552000e-05,1.698000e+00,-2.104000e-01
-1.455000e-05,1.772533e+00,-2.114667e-01
